249 364 330 320 318 316 322 334 331 336 339 336 334 336 335 338 340 340 342 349 355 360 362 364 367 367 358 371 362 359 357 353 349 350 415 117 203 365 382 388 390 389 394 397 405 419 431 432 419 389 359 340 332 331 332 336 341 341 343 341 343 343 343 343 344 342 341 337 331 327 328 331 331 332 332 335 336 341 342 344 346 342 348 357 344 341 336 334 332 352 271 78 325 365 373 378 378 384 389 397 412 424 430 418 392 357 333 316 309 308 310 314 316 320 318 319 321 322 325 328 328 327 326 324 321 319 322 319 323 329 328 338 336 335 336 334 333 332 326 335 339 328 332 334 336 342 344 412 138 105 327 365 369 369 369 368 368 376 388 402 418 431 429 416 390 362 343 331 324 326 327 326 328 328 328 330 332 337 334 334 335 331 332 330 329 329 323 324 325 325 330 332 336 341 339 338 338 337 334 331 331 325 340 338 328 330 330 334 338 350 448 76 193 339 357 357 354 354 354 356 365 379 393 409 417 416 402 374 347 331 322 317 317 317 321 322 326 329 333 335 336 334 332 328 327 327 326 324 323 321 320 322 324 328 331 333 339 331 341 342 338 328 415 14 275 358 364 357 364 374 382 393 398 408 412 395 363 330 314 315 327 331 326 315 314 322 326 328 321 315 320 328 336 332 323 321 327 334 337 332 325 332 338 343 338 326 342 336 340 341 336 332 437 36 326 374 370 371 379 387 397 402 411 426 422 392 352 323 320 329 333 336 328 321 325 333 340 338 329 330 336 342 341 333 325 328 336 338 336 324 326 334 338 342 344 327 328 336 341 345 393 87 327 362 365 354 349 355 374 392 401 397 393 371 351 334 317 299 296 310 316 316 305 305 315 322 318 309 316 324 332 328 320 321 331 341 344 329 342 338 338 342 336 326 377 73 256 349 353 349 356 367 377 384 390 402 408 397 366 333 318 324 331 338 334 327 329 334 340 338 331 327 333 343 345 338 327 329 338 343 341 330 329 336 343 341 340 342 333 338 347 341 340 376 90 333 370 366 355 360 372 384 393 402 408 405 379 349 325 311 313 322 331 329 320 316 321 326 331 329 322 322 326 335 332 324 322 330 336 342 337 328 333 339 346 346 336 334 340 345 345 336 347 341 345 350 348 338 419 0 296 378 378 369 375 376 396 418 428 422 401 371 347 330 318 316 322 330 332 321 314 317 326 330 327 319 322 328 333 331 322 319 327 336 343 339 328 330 337 344 341 331 330 338 341 347 350 332 336 343 346 354 372 71 339 379 383 375 371 377 393 411 421 422 408 381 354 333 313 317 325 332 331 322 315 321 330 332 325 317 319 329 333 334 326 324 330 340 340 329 325 332 341 345 339 331 334 339 339 358 334 330 334 343 345 448 30 301 366 376 371 363 367 377 397 416 418 408 385 358 339 326 315 317 325 333 332 322 319 323 331 334 328 322 320 327 326 323 323 326 330 330 333 335 341 342 343 335 359 345 342 337 334 332 341 421 18 290 356 367 370 376 381 385 392 404 421 432 428 406 368 338 322 315 316 321 326 327 333 334 335 335 337 337 335 331 329 326 325 324 323 323 323 328 330 332 335 339 345 348 348 347 345 333 346 334 326 328 329 329 336 447 0 247 358 374 378 381 381 379 382 389 402 412 414 399 371 344 328 326 327 330 333 333 333 333 332 328 326 321 316 315 314 316 316 320 325 327 330 332 334 337 336 337 333 332 328 331 329 331 345 335 335 344 343 404 44 257 363 377 372 363 366 374 396 409 413 407 388 361 340 324 315 318 326 335 336 322 317 321 331 334 326 317 318 324 332 330 322 318 326 334 336 324 319 313 315 310 310 304 324 257 164 363 385 368 357 365 378 393 401 413 417 407 366 337 298 283 317 341 332 330 346 348 352 354 342 328 331 339 343 340 337 338 341 351 347 350 338 337 337 350 381 346 345 342 351 341 322 328 385 50 332 361 358 358 365 378 388 394 405 414 408 383 347 321 311 316 328 329 318 317 317 326 333 325 319 320 328 335 329 333 333 325 323 326 335 342 331 321 320 333 339 335 346 381 346 342 333 339 324 321 328 358 352 401 0 231 350 364 351 354 359 351 382 395 394 411 395 374 351 324 315 328 339 340 330 321 321 330 335 326 297 271 268 283 304 298 309 327 342 355 352 343 331 346 350 359 349 342 364 376 151 373 400 391 385 384 372 370 369 389 413 401 332 306 316 334 335 325 320 326 296 304 299 335 317 289 287 352 395 340 310 315 319 350 355 341 336 338 347 352 342 343 353 368 376 391 69 318 360 313 347 309 97 205 344 218 251 451 531 497 446 426 418 394 408 425 380 352 350 306 156 261 282 301 335 373 361 336 325 341 356 361 344 340 338 342 367 352 345 338 351 358 354 337 325 322 431 19 271 339 344 344 353 356 348 352 371 389 390 365 324 301 295 301 301 298 290 288 297 251 275 272 279 303 333 304 246 174 164 232 279 381 380 354 500 455 404 288 287 232 227 302 0 35 315 329 353 304 418 498 458 407 257 186 318 308 440 109 285 320 454 329 389 376 396 433 550 567 477 464 438 446 439 427 256 328 407 401 444 392 447 232 349 233 297 325 319 361 388 82 356 430 443 429 420 398 596 669 605 390 377 576 515 464 276 321 63 191 222 68 91 85 53 0 135 196 347 329 379 339 416 459 409 453 462 417 394 379 386 334 301 363 280 324 319 408 230 93 405 354 237 232 300 253 292 319 261 307 258 318 305 406 352 356 422 421 379 202 171 248 298 289 284 317 334 339 334 347 352 351 351 369 399 383 341 352 366 416 354 347 476 461 375 343 313 240 302 335 216 51 339 325 380 412 402 251 308 424 437 673 559 526 373 74 197 259 300 303 343 360 372 382 379 388 386 386 380 369 418 489 406 331 265 275 288 308 334 376 368 449 0 290 407 439 398 378 361 354 359 381 402 412 408 374 350 343 331 338 330 309 296 293 305 324 328 335 338 346 362 365 350 340 332 346 350 344 335 332 338 348 351 334 314 316 327 330 348 221 165 343 371 375 376 370 369 391 414 424 415 398 368 354 340 321 319 324 346 361 352 340 335 339 343 339 390 371 330 332 353 304 288 262 256 305 318 325 311 323 344 430 55 251 354 372 382 387 366 372 395 425 449 435 404 364 343 334 319 312 315 329 335 329 321 313 319 332 327 318 318 328 333 328 328 324 332 338 338 337 319 337 339 343 336 325 325 389 73 252 354 359 362 374 381 382 376 386 398 386 367 349 327 319 318 280 326 289 327 323 342 339 325 320 327 339 334 314 303 299 326 355 365 357 344 347 362 457 43 302 362 381 387 379 374 384 404 428 432 419 388 363 351 338 325 319 328 338 343 329 322 322 336 346 336 323 316 325 338 344 336 322 324 338 385 313 296 295 341 340 444 0 332 286 330 365 290 270 274 299 346 375 374 348 314 300 291 337 286 285 290 289 259 251 250 270 288 304 294 301 316 325 347 347 337 349 361 380 384 376 366 364 399 403 172 391 403 399 410 417 412 388 0 0 654 661 675 675 675 675 675 674 674 675 375 345 343 341 342 341 359 446 510 522 499 453 484 449 661 431 624 528 282 0 0 0 425 674 674 675 675 676 675 674 675 674 662 347 345 392 674 674 592 353 349 306 341 509 672 331 592 674 0 0 0 0 0 0 0 0 0 0 0 0 0 0 0 0 0 0 0 0 675 417 395 502 675 675 462 348 344 340 342 320 414 490 532 556 562 532 465 0 51 341 341 340 341 341 337 167 0 0 0 0 0 0 0 0 0 0 0 0 0 80 142 193 330 354 358 374 354 406 421 425 434 434 461 476 510 499 497 526 535 550 553 565 568 542 555 547 548 542 530 518 532 527 528 525 641 514 528 321 472 492 511 507 479 482 486 477 480 525 525 505 474 498 465 479 576 491 428 397 392 119 0 0 0 0 0 0 0 0 330 327 314 119 0 0 11 379 361 344 342 341 536 674 674 674 673 647 33 0 0 12 675 674 674 675 675 675 675 676 674 674 674 674 674 674 675 674 675 675 675 675 675 675 672 307 430 327 280 261 193 83 61 11 0 0 0 0 0 0 0 0 0 0 0 0 0 0 0 0 0 0 0 0 0 0 0 0 0 0 0 0 0 0 0 0 0 0 0 0 0 0 0 0 45 88 95 144 253 107 242 140 164 140 161 201 218 224 220 200 221 436 158 672 0 489 0 0 212 280 329 322 318 322 331 337 333 325 325 335 339 343 334 330 334 339 349 345 333 332 336 364 358 349 339 338 346 447 40 295 359 372 380 388 384 379 387 405 425 427 396 355 336 336 338 339 328 327 329 336 340 335 322 324 330 337 336 327 321 326 334 343 335 327 324 330 335 346 345 327 331 339 343 364 294 154 352 372 376 371 363 366 381 406 423 419 398 369 348 339 332 322 320 325 335 338 327 318 323 335 334 326 320 322 330 338 335 326 326 333 345 346 336 328 329 350 344 345 335 328 336 465 25 324 359 360 367 380 383 380 388 409 425 426 392 353 331 330 337 339 335 328 331 336 341 338 327 326 330 339 343 335 328 329 337 317 323 329 336 331 316 316 325 333 337 329 322 324 329 339 339 332 328 332 340 344 340 349 334 338 345 347 339 452 30 328 373 376 367 367 371 386 403 408 412 408 386 360 339 321 318 324 334 339 335 322 320 331 338 337 328 324 331 337 344 339 329 326 331 340 341 334 328 331 339 351 347 334 357 359 331 329 333 341 371 298 146 351 373 379 381 375 372 381 403 429 437 411 368 341 333 336 335 327 327 330 340 344 339 323 321 324 333 339 331 323 324 332 339 340 331 325 327 336 345 343 333 332 336 342 348 346 335 335 359 353 352 342 334 335 439 14 304 361 364 368 374 386 390 390 401 418 421 404 365 330 315 320 335 339 337 332 334 334 342 344 337 328 326 333 342 342 331 329 333 340 348 347 337 334 339 342 350 344 335 334 333 365 362 344 330 335 340 399 122 258 352 362 369 377 376 368 374 392 413 420 388 332 332 333 337 337 337 334 331 326 325 323 324 329 331 334 335 339 342 344 344 341 339 336 336 333 334 334 335 336 339 341 344 345 346 346 363 354 340 336 329 329 344 384 63 318 355 364 369 375 378 380 386 398 410 420 411 387 356 335 328 325 327 330 334 338 342 340 340 333 329 327 323 322 323 323 329 329 330 335 341 344 345 345 343 340 338 335 330 329 330 331 333 337 342 345 349 351 351 350 343 355 352 336 338 337 337 338 393 131 205 363 378 382 382 382 381 385 390 402 415 417 407 381 350 334 329 329 334 333 322 320 323 332 335 325 321 323 332 337 333 322 324 332 343 341 332 329 335 346 350 342 336 341 345 353 345 335 337 340 351 362 335 333 336 344 353 448 39 326 366 380 376 369 373 383 404 425 428 415 387 358 341 327 316 320 326 336 331 320 315 323 331 334 326 322 321 331 334 330 325 326 334 343 340 330 334 339 348 347 339 332 334 342 370 348 339 338 346 357 473 29 329 372 383 385 376 371 383 401 423 427 414 387 359 342 332 321 320 328 341 342 331 325 326 335 339 333 328 331 337 345 342 333 333 337 348 339 349 349 339 335 335 350 360 344 337 340 347 373 283 181 353 365 372 371 357 356 372 398 416 415 397 366 345 336 326 320 323 332 339 337 327 325 330 341 339 328 322 328 334 339 331 327 330 340 346 342 322 339 339 346 342 331 329 365 184 235 353 355 358 367 375 372 369 389 415 425 405 360 330 326 331 334 325 321 328 333 338 333 326 327 335 340 341 331 332 333 343 344 333 326 331 338 346 340 331 330 335 343 344 336 327 352 345 350 340 334 336 434 11 306 357 369 378 386 383 375 385 409 431 425 388 351 336 335 339 327 328 331 339 336 326 322 326 337 338 328 326 332 344 344 331 330 336 346 345 333 332 340 349 345 336 335 334 349 358 334 332 339 347 367 273 163 355 378 381 371 368 376 396 412 421 422 407 379 348 326 318 322 334 335 324 323 328 336 336 325 325 331 339 342 332 328 334 344 343 334 332 340 348 347 337 338 338 353 356 337 336 345 354 370 290 175 357 374 376 362 360 370 385 397 400 402 394 370 346 324 321 327 334 337 326 324 332 338 333 324 322 332 339 338 327 327 334 344 343 327 331 336 343 342 330 331 348 358 359 361 363 367 375 391 410 425 430 416 382 354 332 322 320 322 323 324 328 330 333 337 339 339 342 341 338 332 329 327 326 327 327 331 332 336 340 343 347 349 352 350 349 347 344 342 339 341 341 343 340 343 347 350 348 363 367 352 349 342 339 335 373 133 179 346 365 374 379 382 386 392 404 416 430 431 420 388 353 332 324 324 327 331 336 340 343 342 343 338 332 328 328 329 330 329 330 332 336 337 339 341 345 349 347 342 339 338 334 332 333 337 341 342 347 348 357 361 359 358 356 351 343 354 358 340 342 350 357 466 20 324 374 384 384 374 372 381 403 421 425 414 388 361 346 338 325 326 335 342 345 339 332 335 340 346 342 335 331 335 345 344 337 332 332 340 350 346 334 334 337 348 352 340 326 349 343 350 345 335 335 423 60 307 363 362 365 375 382 383 380 395 413 421 403 362 332 325 328 335 336 327 327 331 336 336 331 322 325 332 344 341 331 330 334 341 343 334 331 335 342 347 344 335 333 340 346 345 351 333 338 349 355 361 397 114 352 375 379 372 367 374 384 404 419 421 412 387 363 345 327 319 324 336 335 331 324 331 338 338 328 322 326 333 340 337 327 326 333 342 348 341 337 338 343 349 344 337 339 345 350 347 343 355 344 345 350 345 345 406 85 353 378 370 367 368 377 391 400 409 421 417 395 362 332 320 322 333 337 336 326 324 329 338 336 325 323 331 337 338 333 327 327 333 340 339 333 330 337 346 347 339 328 335 355 346 344 335 336 347 454 76 341 364 369 375 383 381 379 391 417 434 427 387 348 334 329 333 332 327 324 333 345 343 330 324 326 335 343 339 331 333 341 348 349 337 332 339 345 349 340 335 332 353 361 348 337 337 342 379 205 201 354 374 384 385 379 376 389 414 431 426 398 369 350 341 330 320 323 334 338 333 323 325 331 337 334 322 326 334 340 341 330 326 336 344 344 335 333 333 353 361 335 328 331 337 356 368 134 347 364 373 366 358 363 376 397 410 404 394 370 351 338 320 316 322 336 335 326 319 324 332 335 327 321 326 336 340 333 327 330 338 336 345 347 334 343 350 345 351 319 163 366 372 363 365 368 381 388 392 407 420 416 384 343 325 325 333 337 328 322 325 331 334 329 323 327 337 345 340 330 330 336 337 333 331 330 334 338 339 335 356 363 351 352 349 347 341 415 58 234 352 366 368 370 376 378 388 400 415 430 431 413 382 350 332 323 320 323 329 334 334 336 338 336 336 333 330 327 324 324 325 326 329 334 334 336 339 340 342 341 344 339 336 331 330 331 332 332 337 336 351 360 346 349 347 347 345 370 228 148 347 363 367 369 371 376 385 397 413 428 432 421 389 354 330 322 320 321 324 328 332 335 336 336 335 337 336 333 331 327 326 325 329 330 335 338 341 343 348 348 347 348 339 338 356 341 336 342 353 368 375 380 370 368 376 396 416 416 394 361 342 336 329 322 322 331 340 340 328 324 331 339 340 333 325 327 336 343 335 331 336 340 346 341 332 325 356 347 345 333 332 338 436 32 298 355 367 375 378 373 371 388 414 432 419 385 351 338 334 332 323 323 331 340 339 326 321 326 334 338 329 325 329 337 340 335 329 333 339 345 340 335 336 342 349 350 339 337 341 352 346 349 347 337 348 351 341 354 224 188 366 372 363 365 373 388 397 404 421 427 416 381 341 324 324 333 335 328 325 328 334 341 334 326 331 344 342 331 328 335 343 345 336 331 335 343 348 338 330 332 339 345 338 330 352 344 347 342 332 333 456 61 331 357 359 361 370 373 370 375 396 415 416 384 346 329 330 334 330 323 326 336 339 336 324 323 331 343 344 334 329 332 342 345 337 332 335 343 350 344 331 355 347 351 343 335 336 379 145 260 357 364 365 371 373 369 377 398 422 427 400 358 334 329 332 326 319 321 328 338 331 322 321 329 338 340 327 326 331 340 340 330 323 330 341 346 339 331 335 342 349 344 336 338 346 354 351 339 337 344 353 359 358 337 350 340 333 380 96 231 364 370 373 381 387 386 388 410 440 446 420 365 333 326 331 323 317 320 330 338 332 321 322 327 337 333 320 318 326 338 336 327 327 334 341 344 332 330 339 348 350 338 332 339 348 350 337 347 352 345 352 340 332 370 160 248 366 363 368 377 385 384 380 394 417 426 406 362 338 336 341 338 327 328 337 345 340 327 323 324 333 335 324 322 331 340 339 328 325 331 340 341 331 326 332 338 358 340 326 327 340 348 380 107 253 360 375 370 360 362 373 390 400 404 408 399 374 342 321 320 326 338 331 341 345 345 340 337 332 329 328 329 331 331 334 339 341 345 349 348 347 345 341 336 334 333 333 336 337 342 342 365 364 349 347 344 342 341 446 0 280 357 367 369 373 380 384 394 406 424 436 431 408 371 342 323 316 318 323 330 335 338 339 339 336 330 327 324 324 322 322 326 330 333 337 342 344 348 351 349 348 344 339 335 336 334 338 340 345 350 352 352 354 349 361 357 337 338 334 337 338 407 103 220 365 376 378 378 380 378 379 382 393 408 413 405 381 360 342 340 335 337 340 337 336 330 325 322 323 325 327 339 342 334 323 330 338 345 338 326 326 333 341 335 338 328 335 343 345 332 353 182 229 366 363 357 363 370 380 383 389 405 420 414 379 339 321 325 334 337 327 326 328 335 338 331 322 329 337 343 338 327 327 335 343 340 329 329 335 345 345 336 332 338 347 351 340 330 348 355 352 345 332 330 366 194 223 354 362 371 380 379 370 373 396 423 435 409 367 343 335 342 334 323 325 338 346 342 329 325 333 343 344 333 326 334 342 343 332 324 329 339 344 336 329 331 338 347 343 332 333 341 349 352 340 334 339 343 360 340 333 343 351 343 416 10 288 372 379 369 367 377 389 401 408 415 417 404 374 344 323 326 333 339 332 323 320 327 334 334 321 319 329 339 338 331 321 328 335 342 335 325 332 343 349 340 330 331 341 350 348 329 345 348 350 349 340 334 362 242 212 356 357 360 372 379 375 374 394 417 430 413 367 336 331 334 333 325 323 329 338 343 328 323 326 334 341 330 321 324 337 346 340 328 328 340 347 344 333 331 336 348 350 344 338 340 345 348 340 350 344 346 350 341 333 436 0 313 372 367 365 373 389 398 396 404 425 410 379 342 319 324 337 345 329 320 320 330 336 329 320 318 328 338 336 323 320 330 339 337 324 323 332 349 345 331 330 339 352 349 336 336 342 352 346 353 328 309 271 196 80 137 