340 330 362 350 352 354 355 356 384 390 388 387 385 382 376 375 372 370 370 367 359 366 365 365 370 362 347 193 345 384 367 363 360 364 361 352 349 343 334 327 325 328 340 353 359 360 360 356 352 351 348 352 353 353 352 349 345 344 344 344 341 341 342 345 348 352 355 356 348 344 350 353 356 362 359 345 202 369 390 379 381 381 378 376 369 364 364 361 356 353 349 355 364 368 370 371 368 361 358 357 356 356 357 353 350 353 351 352 349 345 342 341 341 337 327 325 329 337 341 342 335 314 180 319 352 341 337 331 327 325 321 302 302 300 312 328 335 338 375 380 371 387 381 376 383 377 366 377 382 375 373 370 359 358 348 337 349 345 338 337 334 330 343 338 335 342 352 352 352 353 334 299 182 339 352 337 334 338 327 328 310 321 307 303 288 284 294 278 286 288 296 310 312 308 306 307 306 315 313 315 324 329 331 329 327 323 325 329 329 332 338 341 339 344 343 343 334 342 345 353 352 359 354 338 290 306 313 366 356 359 353 355 344 341 340 337 334 331 327 322 326 307 323 329 322 339 335 330 332 327 337 333 335 325 342 334 333 332 319 333 327 325 320 316 318 310 320 323 331 337 338 302 235 348 351 358 364 359 360 356 356 354 349 346 346 356 379 384 385 390 383 384 382 381 384 383 383 382 382 377 376 375 372 372 365 366 367 352 357 356 353 354 347 281 306 357 353 358 356 354 353 356 355 354 355 359 348 357 370 372 370 368 365 361 363 362 360 359 355 354 351 346 345 341 339 338 338 327 335 338 338 345 338 308 276 310 352 358 353 351 350 350 347 349 353 349 335 329 342 350 357 362 365 366 371 376 385 392 395 395 393 390 384 378 377 377 375 370 358 364 365 363 365 358 284 297 368 357 352 348 341 334 327 321 312 309 311 311 327 342 344 346 346 342 339 338 339 343 344 344 344 346 343 342 340 340 336 335 334 330 318 325 330 330 336 331 313 156 319 342 344 339 335 332 328 333 330 324 325 325 325 324 325 326 329 331 331 332 331 331 323 324 330 329 341 340 328 210 323 369 357 359 353 353 349 349 342 339 337 336 336 352 359 360 358 354 349 344 344 347 345 344 342 340 338 336 333 334 333 333 333 333 331 322 333 336 341 347 345 266 295 371 368 373 368 366 362 361 358 351 349 351 356 374 388 392 394 394 389 386 384 382 383 385 383 380 377 376 374 373 372 369 367 368 365 361 354 357 357 357 357 351 260 345 370 353 350 344 339 332 329 322 316 312 312 302 309 321 321 324 324 324 323 324 324 328 331 329 329 329 330 332 335 333 335 335 328 334 342 343 349 347 330 250 330 364 368 370 367 362 358 356 352 352 349 342 346 358 364 362 361 356 353 351 350 352 352 352 350 347 345 343 341 341 341 340 344 344 343 337 336 342 345 341 306 191 325 351 349 349 346 342 337 334 328 323 316 313 313 315 329 341 348 351 351 349 347 348 348 351 354 358 358 357 356 358 358 360 361 360 358 357 357 357 356 353 353 352 343 349 351 350 359 353 341 251 338 354 355 357 355 350 345 339 334 332 327 326 325 316 311 322 330 332 332 331 330 326 325 328 330 333 333 333 333 336 339 341 341 345 346 348 349 350 354 357 359 361 350 355 362 362 371 370 368 334 239 346 379 373 368 362 356 351 347 341 337 329 324 322 323 337 346 352 350 347 342 342 338 331 333 334 335 334 330 328 329 334 333 330 324 322 323 327 327 315 322 329 339 343 334 272 270 342 339 338 328 327 335 347 357 358 362 368 372 389 409 410 417 426 429 419 409 411 414 421 443 408 349 362 388 386 368 337 332 335 331 345 345 346 352 347 319 282 342 365 372 377 381 373 352 352 353 352 360 339 326 346 378 364 336 349 350 353 291 342 366 370 369 374 379 372 363 361 357 359 361 342 341 337 337 342 337 295 251 330 336 340 347 338 330 326 322 321 312 309 297 298 294 305 301 300 273 358 358 360 361 359 356 358 362 365 363 363 360 356 356 354 356 354 355 355 351 368 348 359 369 371 334 168 351 352 359 363 366 357 342 336 317 309 303 309 319 333 333 369 363 377 381 385 415 382 386 379 378 367 367 360 357 350 351 346 340 327 327 335 341 351 348 337 165 346 373 375 375 372 363 352 342 333 323 314 314 322 344 359 366 369 373 376 384 390 390 389 389 388 389 386 382 379 378 376 376 372 362 359 366 365 367 359 338 173 338 360 353 346 340 336 330 324 318 309 303 302 300 310 320 322 323 322 319 318 318 319 319 321 314 313 314 316 314 311 311 306 305 310 312 322 317 307 214 298 353 337 338 342 340 338 338 335 337 336 334 323 328 340 347 351 346 344 344 348 354 356 355 355 355 357 359 359 356 356 354 344 351 350 356 367 362 426 423 420 412 407 400 390 383 370 359 350 350 348 360 373 378 376 375 371 366 365 363 363 364 360 359 356 354 353 351 349 348 347 345 342 331 331 333 333 339 342 341 312 160 322 355 353 350 350 346 342 339 336 329 321 319 320 325 339 348 353 355 356 354 353 354 353 355 355 357 359 359 361 358 361 362 360 360 359 358 358 346 352 354 353 363 358 351 277 319 349 364 368 364 362 358 358 354 352 351 349 347 340 330 337 343 345 345 344 343 342 345 347 347 348 347 348 347 344 345 347 345 340 335 331 339 343 348 339 250 331 371 360 359 358 357 352 345 339 337 333 333 322 332 340 346 345 341 340 342 342 348 350 347 348 346 347 347 345 344 346 344 339 330 334 336 345 349 340 196 326 366 357 354 351 347 342 338 329 318 313 313 318 334 343 347 349 348 348 349 353 356 360 360 355 354 354 355 353 351 350 349 350 351 348 338 346 348 353 356 349 223 335 375 367 366 368 366 361 359 354 348 344 342 341 352 361 365 365 365 362 363 360 363 362 361 359 354 357 355 354 353 351 349 347 344 334 336 334 340 337 327 239 321 356 337 338 337 335 332 327 325 324 326 324 308 306 318 323 328 326 326 325 329 335 336 338 337 340 341 340 339 340 339 330 330 333 337 350 346 296 292 350 355 358 355 349 344 339 336 333 320 317 312 322 336 339 336 336 335 338 339 337 342 345 348 347 345 348 349 348 348 348 348 337 341 344 347 355 352 337 154 344 365 371 372 372 366 361 355 348 339 339 336 347 367 374 376 373 370 368 370 372 374 374 371 370 370 369 363 360 360 359 358 354 350 339 351 350 353 356 351 293 258 357 357 359 358 353 345 340 332 326 317 315 313 329 340 342 338 336 337 339 342 342 344 344 346 346 341 341 340 339 337 338 336 336 327 336 337 339 339 334 273 309 347 344 345 345 343 341 339 338 338 337 333 318 319 334 343 347 344 347 349 353 359 359 361 363 365 368 368 366 366 368 368 357 359 364 367 375 369 331 281 348 375 379 375 367 364 359 353 346 338 337 330 335 347 350 349 352 347 350 346 338 341 342 345 344 341 339 338 339 339 336 337 332 324 334 334 332 340 337 292 199 339 342 347 347 346 340 332 329 322 315 313 313 327 343 352 350 351 345 347 346 347 347 347 346 345 345 344 342 342 343 344 346 347 339 351 351 350 359 359 358 252 297 376 377 382 382 378 374 371 367 364 366 360 357 355 356 366 373 374 371 369 366 365 362 362 364 363 362 359 356 353 351 351 347 344 340 336 335 331 325 319 321 327 327 331 326 300 185 293 355 346 349 345 343 340 337 335 334 333 327 323 310 310 320 329 332 332 332 336 333 337 340 342 342 344 343 344 346 346 344 344 342 341 339 338 328 333 337 338 346 345 339 283 294 332 356 361 358 356 354 350 344 341 336 331 328 324 337 350 356 355 350 349 352 354 357 358 359 358 358 359 357 355 355 357 357 353 349 343 337 346 345 351 349 345 196 330 368 361 361 362 359 352 347 344 333 328 328 331 349 363 370 371 367 365 364 367 372 370 369 365 363 366 364 361 356 357 358 359 357 355 353 353 339 348 349 349 359 354 325 185 336 356 364 364 360 353 346 342 335 327 325 321 330 342 351 353 349 348 353 356 357 358 359 359 360 359 357 355 353 353 352 350 348 346 340 343 346 342 352 348 331 202 301 362 357 357 354 350 346 344 342 336 335 331 318 319 327 335 335 332 333 333 338 342 347 347 346 345 345 347 347 344 342 344 340 338 339 340 350 346 336 239 328 371 357 359 356 350 347 344 341 338 333 332 324 336 349 352 352 352 352 351 350 353 353 354 352 351 350 348 348 351 351 348 347 344 331 336 337 336 341 336 296 191 339 349 351 352 350 342 333 328 322 313 312 313 327 346 354 356 352 351 352 353 354 356 358 357 358 357 355 355 353 353 351 350 349 345 335 346 345 346 345 341 249 298 359 350 352 349 347 344 340 335 330 325 322 315 322 337 341 337 336 336 337 336 337 339 340 341 342 343 341 344 346 344 341 340 339 344 346 357 352 339 238 328 380 364 365 366 366 362 362 362 365 365 358 342 347 361 365 362 360 358 360 362 368 365 363 364 365 365 364 359 357 358 348 345 344 347 358 353 321 227 332 353 358 352 345 338 331 326 317 307 306 305 317 329 332 325 324 324 325 325 324 321 324 325 327 325 324 326 327 330 326 327 328 320 329 329 329 334 325 254 237 337 332 335 336 336 332 326 326 322 315 315 315 334 358 370 370 367 363 364 365 365 365 367 362 363 361 360 357 358 356 355 349 342 352 350 350 357 352 340 174 344 368 356 356 354 350 346 339 334 329 324 320 319 316 325 335 343 343 345 345 344 347 350 353 354 355 353 352 353 352 349 348 349 350 351 350 346 339 345 349 347 355 350 335 247 341 361 360 362 359 356 352 350 345 344 343 342 338 324 320 327 334 340 341 338 339 339 337 339 342 342 345 347 347 348 349 348 348 347 348 346 345 335 340 344 343 352 350 346 294 268 331 357 359 356 350 347 342 336 334 327 320 318 317 318 332 341 345 348 345 342 346 349 350 351 353 355 357 355 353 350 351 354 355 354 343 353 354 362 367 361 290 271 376 371 368 366 364 359 352 343 334 327 329 333 344 356 365 367 366 362 360 361 364 368 366 349 344 345 348 347 345 343 346 345 348 335 339 346 347 357 350 334 161 332 357 358 356 353 348 344 339 332 323 322 323 327 341 346 347 346 346 345 342 344 348 348 349 348 346 347 347 345 341 338 340 339 330 324 327 326 335 330 321 169 322 345 341 340 338 335 330 330 326 323 317 314 307 318 329 331 331 329 331 335 336 338 339 339 337 337 338 338 336 335 335 333 323 326 330 336 340 334 269 301 342 352 358 353 355 355 354 355 356 352 352 343 346 357 364 362 363 365 369 371 373 376 379 381 378 377 374 373 371 369 366 364 363 349 358 354 354 360 356 318 211 345 354 359 356 351 345 337 331 324 316 312 310 319 334 342 343 340 339 339 342 340 341 342 342 342 340 338 339 338 338 340 339 334 324 336 337 340 339 333 198 323 352 344 345 343 342 338 332 322 315 311 312 310 321 333 337 339 338 336 338 341 345 349 347 346 350 351 350 349 347 347 347 341 332 339 341 347 340 332 230 334 370 350 350 347 348 344 340 335 333 330 326 312 314 325 332 334 333 332 334 338 341 343 343 342 342 345 346 345 342 331 339 345 343 350 343 311 254 315 351 355 353 353 348 344 338 334 333 332 322 324 337 343 344 344 342 344 349 351 355 357 360 363 364 366 364 366 368 369 368 358 365 366 374 379 375 298 290 389 385 387 383 378 373 368 358 347 341 339 348 361 372 374 373 374 369 368 366 365 366 365 363 358 353 354 352 348 342 338 336 326 335 335 335 341 337 296 214 317 344 341 338 334 329 325 319 316 311 313 323 334 338 338 336 335 337 340 341 345 345 344 344 344 342 340 340 339 336 337 338 337 326 332 337 340 348 342 333 250 315 334 343 349 347 347 345 343 341 339 337 333 333 322 313 322 330 334 333 334 336 335 337 341 342 345 346 346 346 346 348 347 346 345 342 333 337 342 344 354 349 334 234 341 365 360 363 360 357 355 350 346 344 341 339 336 329 326 336 346 350 350 349 348 348 348 351 354 357 356 359 360 359 362 361 361 357 358 356 355 353 339 343 349 346 352 352 340 150 333 362 363 361 329 323 320 318 309 298 295 298 309 327 336 340 342 343 346 353 355 358 363 362 361 360 359 361 360 356 356 355 356 357 347 343 349 347 356 352 340 171 333 363 362 361 359 356 352 345 336 326 324 322 321 333 343 345 348 345 344 345 347 351 354 352 354 354 354 354 353 350 350 351 352 350 339 344 350 352 355 349 320 252 319 357 360 359 356 355 352 348 345 344 342 334 328 336 344 350 349 346 347 348 352 355 355 354 354 357 358 355 353 352 353 357 356 346 345 351 351 362 354 336 214 330 371 361 358 352 350 345 341 336 326 316 317 315 325 337 341 345 342 339 336 339 341 345 349 348 348 350 353 354 354 351 351 354 354 351 344 350 354 359 359 352 213 343 381 371 370 369 366 363 355 348 338 334 333 336 351 361 367 368 367 365 364 366 369 370 368 367 366 367 366 361 357 355 355 355 350 338 343 349 346 352 345 320 202 329 348 351 346 342 339 335 328 321 313 312 308 308 321 327 332 330 326 325 328 331 332 329 327 327 328 329 325 323 321 323 323 313 314 318 319 329 324 301 185 277 337 331 329 328 327 325 325 324 325 321 306 305 317 326 329 330 331 334 336 340 343 342 344 346 349 347 348 348 348 350 347 336 342 347 348 355 348 321 237 331 358 360 355 353 353 347 341 333 326 327 325 328 341 346 349 351 348 346 343 347 351 356 362 361 359 363 363 362 359 359 358 346 354 350 353 360 355 300 244 355 356 360 358 352 345 336 332 323 313 309 308 321 338 346 344 339 339 341 341 339 341 344 346 347 347 346 345 347 348 349 347 347 343 339 348 345 349 348 345 209 349 368 357 358 360 354 348 343 339 337 331 326 324 345 343 343 344 346 345 347 348 347 345 344 341 341 342 343 343 345 345 341 331 335 339 336 344 337 315 203 316 360 344 344 343 343 341 337 334 331 327 326 321 306 306 317 326 331 334 334 336 337 340 341 342 342 340 339 341 342 344 343 344 345 343 338 330 335 340 341 348 341 324 199 334 369 355 357 354 350 346 341 335 335 329 326 325 322 334 348 355 357 357 356 356 355 356 358 359 361 363 364 363 362 363 363 362 359 357 357 354 346 339 347 347 349 354 347 328 147 336 361 357 357 353 349 343 337 333 325 317 313 310 322 341 346 345 345 349 353 353 352 353 354 358 358 356 353 356 357 358 354 352 354 348 350 354 351 363 365 353 196 349 376 380 383 381 377 374 375 376 370 363 357 356 367 374 371 369 369 368 363 358 357 363 363 362 356 355 355 355 352 349 345 344 337 339 337 342 340 332 238 322 362 347 348 348 345 339 337 338 336 332 323 310 316 328 328 327 328 331 332 333 333 335 335 335 336 332 334 337 334 327 323 316 320 327 336 335 326 239 326 361 342 342 342 342 337 331 325 322 320 319 313 325 338 345 347 348 344 343 343 345 351 351 349 348 349 352 353 351 348 348 350 342 341 342 345 357 359 348 158 343 367 370 368 362 354 348 343 335 322 313 309 316 333 342 342 344 343 343 343 346 346 351 353 352 349 347 348 349 348 345 341 339 332 338 339 344 345 344 242 326 367 352 355 355 351 346 342 341 337 332 325 315 324 336 343 342 341 340 343 345 346 347 349 350 352 349 346 347 349 349 339 332 334 334 348 344 324 209 305 366 354 352 348 345 345 343 338 333 332 329 318 323 330 335 337 338 338 337 339 345 349 352 349 350 350 349 346 347 350 350 346 332 341 348 348 353 344 315 193 340 353 356 355 354 351 343 336 329 323 321 317 325 341 353 355 349 347 348 353 356 357 355 357 361 363 358 361 358 362 359 355 352 345 356 358 359 357 348 203 340 371 367 364 356 356 351 342 336 329 325 326 326 338 347 350 353 352 