333 337 335 332 336 331 333 343 336 340 336 334 328 334 335 350 348 347 348 354 228 379 357 347 349 341 339 346 341 327 326 317 305 299 316 326 335 340 341 338 331 331 337 332 335 329 335 331 340 337 331 336 347 336 354 366 350 360 361 261 403 383 362 364 357 355 358 346 354 342 329 313 318 334 342 356 365 355 363 352 364 356 363 366 363 361 368 353 353 357 366 370 371 375 378 384 259 409 404 381 377 375 386 371 375 369 368 347 332 329 342 352 366 361 359 360 353 366 351 357 356 356 358 356 353 344 343 348 354 353 353 367 357 365 284 338 402 360 358 356 352 358 348 346 340 339 315 312 324 334 345 348 345 350 348 347 338 343 343 342 348 339 343 340 328 327 324 336 334 342 347 334 346 334 303 389 365 351 342 347 345 341 340 343 338 328 310 319 331 353 344 351 342 349 345 340 343 345 333 344 340 344 332 325 330 336 347 340 361 336 331 332 330 333 330 330 320 312 298 301 313 322 341 338 339 333 335 333 334 336 331 337 339 339 334 334 327 332 336 339 344 349 347 350 349 236 379 358 350 350 351 350 346 343 345 344 332 361 358 360 352 358 354 350 362 352 355 356 353 350 344 345 352 350 355 350 354 338 286 369 342 322 322 308 308 304 290 284 269 258 266 281 285 281 286 273 278 268 260 258 256 257 255 255 251 246 258 265 270 274 273 243 284 320 293 289 288 301 298 301 308 308 295 285 302 321 337 328 330 336 338 334 337 347 348 347 354 354 347 351 363 354 372 369 377 373 283 387 397 389 389 392 386 382 379 379 367 355 351 376 384 386 383 384 382 371 376 379 373 373 366 371 371 378 356 361 364 368 365 369 370 370 315 396 379 360 364 350 347 338 316 312 331 344 344 357 361 354 352 354 343 351 344 350 349 349 350 332 338 335 343 351 353 350 349 358 230 382 369 354 344 347 346 343 337 333 333 314 302 292 308 321 332 333 325 327 330 325 322 329 324 329 326 337 331 334 329 321 328 340 333 339 345 342 348 278 324 343 344 348 344 343 350 351 341 346 344 348 350 330 312 283 324 316 330 337 333 333 334 225 358 362 347 349 346 339 324 327 326 325 316 299 297 308 325 330 325 323 321 325 329 335 335 334 330 324 326 333 350 343 340 348 345 351 358 359 360 308 406 376 361 349 347 344 348 338 331 317 303 319 336 340 341 339 334 340 327 334 330 330 331 337 332 326 319 324 331 333 338 341 337 347 241 382 347 344 341 342 347 346 335 331 319 311 310 349 340 346 343 335 343 341 347 346 349 351 314 346 370 356 342 341 341 337 339 332 331 314 316 324 338 348 350 346 339 342 339 334 337 334 329 337 337 334 327 326 335 339 344 352 341 330 295 387 351 349 353 348 352 350 341 333 318 308 324 340 350 347 348 345 345 345 348 346 341 351 350 345 343 345 334 338 354 344 352 347 347 336 293 383 348 347 344 342 343 335 334 330 313 298 312 329 327 332 328 322 316 318 311 314 307 308 305 302 288 284 282 275 278 280 279 275 282 215 300 291 265 267 261 265 261 250 249 247 230 229 241 263 274 282 277 286 288 293 299 309 307 320 327 332 323 336 343 353 362 361 369 356 346 408 393 381 389 387 388 392 391 389 371 358 372 387 403 392 403 398 394 396 388 389 385 390 388 381 386 375 373 382 383 382 388 379 399 256 416 382 379 378 368 377 374 368 356 347 339 336 356 368 363 357 360 356 355 356 352 358 355 349 351 346 351 336 339 350 353 351 352 350 328 325 383 349 344 342 348 340 336 331 322 317 303 346 344 338 334 333 337 338 340 343 331 334 329 330 340 340 347 348 346 352 304 382 365 351 351 357 351 354 349 344 329 320 321 348 352 351 349 351 337 339 339 345 335 337 343 342 332 326 331 337 345 343 341 350 252 343 363 350 341 347 340 344 350 340 329 320 317 332 342 349 354 345 344 341 341 333 339 336 332 334 338 342 328 333 340 339 350 357 352 350 274 346 368 349 342 347 342 345 318 322 318 333 340 347 340 341 338 342 338 341 338 349 343 349 343 347 346 339 342 335 349 344 354 352 351 361 264 354 372 355 346 341 348 348 339 337 335 332 328 310 321 329 338 339 341 334 342 339 339 335 335 346 337 338 340 331 336 340 335 353 344 346 353 346 358 234 379 361 356 354 342 348 347 345 338 342 335 326 315 323 344 346 349 345 354 344 348 339 348 348 343 348 350 348 345 340 342 353 357 354 361 355 366 253 375 375 362 356 353 349 350 357 348 343 331 327 316 326 340 343 351 346 342 345 340 345 336 350 350 339 345 341 337 352 351 351 362 369 368 368 285 402 369 359 357 350 348 351 344 343 331 321 322 333 345 345 341 338 338 340 333 337 333 338 330 336 331 322 331 332 336 347 343 351 354 241 382 368 351 346 347 345 342 343 340 322 316 313 332 342 349 348 343 346 341 339 343 342 347 348 347 338 341 345 351 348 357 350 358 282 378 366 360 357 361 362 357 348 349 343 327 332 343 352 364 362 360 355 360 355 355 357 355 358 353 341 345 348 346 360 364 364 363 280 372 379 363 366 362 361 361 362 358 346 339 327 341 356 368 366 363 361 358 364 354 358 353 360 355 356 352 349 342 351 353 354 359 361 365 261 386 368 360 355 339 354 355 349 337 329 325 322 340 350 346 355 351 349 347 339 341 345 349 350 340 336 330 344 336 350 351 350 352 299 363 376 357 350 348 348 350 346 335 332 305 313 326 349 355 357 354 353 354 354 356 350 349 348 346 346 340 336 340 342 350 350 349 362 224 376 360 354 347 345 345 344 347 335 318 304 314 330 343 343 348 362 346 344 355 351 351 350 351 339 342 336 336 346 347 349 346 368 354 345 345 338 340 342 340 324 319 314 328 341 344 343 339 345 336 341 335 341 342 340 345 345 338 341 339 346 341 356 358 357 363 263 390 375 357 362 362 354 359 355 344 336 329 325 346 345 356 355 356 351 350 356 352 351 357 355 342 344 344 340 340 356 351 357 358 268 384 374 352 352 353 355 344 330 343 328 314 303 324 333 341 345 346 334 335 338 337 340 331 334 338 338 323 321 330 338 338 344 336 349 231 357 355 341 346 340 342 340 342 332 324 315 312 334 343 344 347 350 344 345 337 342 340 342 344 339 335 342 345 350 355 352 360 322 319 392 365 354 356 355 351 351 348 343 337 329 322 320 335 348 347 354 350 355 342 352 339 345 344 357 355 352 348 335 327 342 338 350 346 348 351 318 339 389 363 352 345 350 340 341 337 338 331 315 310 316 327 336 338 342 345 337 342 341 342 341 344 348 346 337 343 343 342 339 349 339 360 360 359 357 310 340 389 359 357 351 358 353 354 340 341 334 328 315 313 333 337 343 342 337 340 342 340 341 342 343 341 342 344 335 340 333 329 337 336 357 350 354 350 352 276 384 367 349 349 350 349 341 345 333 322 315 328 337 353 348 354 344 343 340 343 338 349 337 351 360 334 346 348 347 349 357 360 360 279 388 366 353 355 351 353 350 346 341 324 312 322 336 349 345 345 348 346 353 328 331 347 351 346 353 339 339 344 346 362 355 358 368 270 381 379 366 371 363 361 364 353 352 341 334 331 332 344 353 341 343 340 336 340 337 340 338 337 342 334 330 328 324 332 331 340 331 326 307 294 352 322 316 308 306 308 303 295 291 280 275 278 283 296 290 297 297 291 288 286 297 292 297 291 292 289 286 290 301 297 301 310 305 279 327 336 318 312 300 312 312 309 307 301 294 291 294 299 322 313 317 323 319 311 314 318 320 324 331 331 322 333 339 334 342 346 353 298 369 381 374 369 367 365 369 362 360 353 344 339 345 360 374 367 366 345 355 357 366 363 357 367 352 354 346 346 347 346 349 345 362 359 256 397 380 377 378 381 381 378 368 361 349 335 336 357 366 370 379 368 364 361 370 362 365 362 357 354 351 333 341 348 348 348 347 346 338 284 391 354 353 348 348 348 345 341 335 324 314 322 343 347 341 345 339 349 339 345 344 343 349 350 344 343 330 341 346 343 351 354 344 349 288 380 347 347 346 346 343 344 343 339 335 319 330 334 352 347 346 352 346 348 349 349 351 350 344 347 360 340 339 343 351 350 351 347 361 273 365 362 353 347 347 345 343 344 338 337 333 325 332 341 340 346 341 341 343 337 343 341 347 350 341 328 334 344 349 340 354 348 346 315 363 361 343 345 344 345 349 331 334 325 315 320 332 337 344 349 334 339 337 339 337 344 342 345 343 337 338 349 353 349 353 357 337 331 380 365 354 357 354 350 352 324 321 334 348 344 348 342 346 347 342 339 336 350 347 336 342 342 343 329 337 333 349 346 338 346 341 248 372 357 340 342 336 343 338 334 331 316 325 305 310 328 343 350 358 366 369 363 364 364 367 349 352 355 351 348 346 333 334 349 347 356 358 350 357 321 338 384 362 355 346 348 350 353 343 342 340 320 312 319 330 340 342 348 347 338 339 343 335 335 345 338 334 338 335 337 326 335 335 340 339 341 341 353 258 364 363 341 341 337 338 342 345 335 337 330 321 315 323 335 340 336 334 341 334 330 334 339 339 332 342 332 334 325 327 336 339 342 345 337 346 249 365 354 336 335 337 336 334 330 331 319 314 306 323 331 330 334 332 344 330 329 335 339 338 338 339 323 338 340 340 344 344 346 345 274 373 355 348 349 351 345 343 341 324 316 308 315 333 347 347 343 347 347 351 352 350 350 356 349 348 343 345 344 352 358 362 356 369 249 381 370 352 360 356 349 352 350 346 325 316 317 345 348 353 354 358 350 355 344 349 343 352 354 354 355 344 344 351 356 366 367 361 378 239 383 373 365 360 358 355 355 347 347 339 316 318 326 340 347 349 350 343 343 352 341 344 350 343 347 347 340 336 344 340 350 349 353 346 304 334 369 349 346 344 340 336 329 328 322 315 306 318 325 331 338 334 332 326 329 325 334 333 334 324 338 340 330 331 334 334 342 343 344 349 231 372 358 348 350 348 346 340 342 336 321 316 320 332 338 343 346 361 342 344 353 346 354 353 346 352 347 343 345 348 356 357 362 361 277 383 373 364 358 352 354 357 349 357 344 324 330 339 354 367 366 358 353 357 357 353 356 359 355 358 355 340 341 350 344 352 357 352 363 293 389 354 354 346 347 347 343 341 330 322 311 321 334 334 335 329 333 338 339 330 329 336 339 333 337 334 330 328 329 336 337 347 334 353 217 368 357 342 336 335 340 331 337 329 308 314 310 322 335 344 345 341 347 340 346 338 344 346 352 343 342 338 341 348 361 363 363 361 270 384 373 356 360 362 359 350 355 351 340 326 323 335 346 354 357 349 349 349 349 347 351 346 348 351 347 338 332 345 341 354 356 348 363 227 379 362 355 349 351 353 351 346 345 333 320 323 338 344 346 347 347 344 343 349 339 338 343 340 327 332 338 337 343 341 344 341 335 300 368 356 340 347 339 343 338 338 337 336 326 311 314 322 335 337 336 342 334 335 338 337 338 340 339 337 341 343 335 331 337 347 344 350 345 350 331 287 370 361 351 342 353 342 349 346 344 338 332 319 321 327 344 341 349 347 342 346 339 344 343 344 342 340 341 341 331 325 331 330 341 338 341 339 348 246 341 360 334 333 329 329 325 324 319 315 312 294 283 294 306 313 312 311 310 311 309 308 304 302 301 301 294 298 298 286 292 289 298 296 304 300 294 316 180 324 307 302 293 294 300 289 293 290 271 268 267 285 293 294 294 291 300 291 303 295 296 305 311 311 299 306 298 313 315 320 323 326 333 264 355 342 330 330 335 339 334 336 332 327 314 318 335 350 347 358 353 352 356 359 364 356 357 364 364 353 363 362 368 376 375 376 369 330 397 384 376 370 380 372 366 369 360 348 338 349 356 365 369 364 362 361 357 361 353 361 361 358 352 348 351 360 361 355 369 367 359 300 393 364 366 360 361 356 353 354 349 332 322 333 343 352 351 351 347 348 352 342 348 344 348 344 343 345 334 331 331 340 346 338 336 341 279 346 357 337 326 330 332 324 321 319 318 302 294 301 314 319 315 326 321 315 321 319 317 318 317 329 312 316 318 322 328 332 329 344 224 357 348 338 335 336 339 335 329 330 317 316 308 337 336 344 345 346 350 353 346 347 351 349 348 348 345 348 345 348 363 360 355 366 254 366 367 358 352 353 348 345 338 340 317 300 298 309 317 313 309 309 298 298 294 287 285 286 279 281 274 259 262 270 267 274 274 268 274 218 305 280 276 277 279 283 281 284 275 265 267 273 283 290 301 305 308 312 310 318 326 330 329 339 340 327 336 346 352 357 366 365 375 316 396 386 375 378 379 380 372 383 369 368 352 352 374 376 382 385 377 383 377 380 380 377 378 376 376 369 371 371 387 380 382 377 369 351 403 389 376 376 370 370 365 362 352 345 337 339 352 359 357 357 355 351 356 349 352 348 350 346 345 332 336 338 337 356 359 350 372 231 382 359 360 360 360 351 363 343 352 337 330 324 337 350 355 352 349 349 353 354 352 352 348 349 354 351 348 341 343 347 352 353 355 354 353 304 385 359 351 352 358 350 355 344 324 335 339 349 346 343 351 346 345 344 342 345 353 343 340 344 345 342 344 346 349 349 355 350 357 267 386 370 360 348 349 352 352 347 342 340 336 322 314 321 330 342 341 349 342 349 343 344 341 346 348 346 346 347 344 338 340 343 354 352 351 352 353 333 322 376 366 350 355 351 350 350 350 348 335 329 317 322 334 336 347 349 347 347 345 345 344 344 346 343 347 340 341 337 331 336 341 346 347 351 350 355 275 356 383 356 352 350 348 344 348 339 339 332 326 320 323 338 341 345 344 343 344 342 343 344 345 344 338 346 341 338 340 340 344 348 351 357 349 342 337 386 378 364 372 374 378 382 378 373 354 350 352 360 367 368 370 358 367 360 355 353 361 352 359 349 354 340 343 352 354 353 356 350 356 277 382 354 350 342 355 349 347 343 333 321 314 315 325 337 345 334 329 329 329 333 333 332 334 331 333 331 324 322 327 327 332 336 334 331 274 365 360 329 334 327 321 327 312 312 309 295 288 304 315 321 325 316 324 324 324 324 330 331 330 330 329 322 326 339 339 342 343 347 341 316 374 357 350 350 350 343 349 340 338 333 321 322 336 351 352 344 347 350 345 351 343 347 349 351 345 346 335 342 351 348 354 351 356 306 340 369 358 350 351 353 349 346 344 338 330 314 328 339 348 347 347 343 346 341 345 344 343 347 346 351 343 335 337 346 345 357 350 344 345 287 383 355 349 345 349 351 349 348 342 332 331 330 344 346 347 350 352 348 346 345 347 351 351 348 354 337 348 351 354 355 360 363 356 305 385 368 357 361 354 352 357 348 343 323 315 323 338 351 346 357 351 348 351 347 350 349 354 353 350 341 340 345 348 354 349 352 361 349 370 357 355 350 351 351 348 349 342 329 318 332 340 352 346 352 344 349 344 348 345 339 341 348 347 334 338 347 344 350 351 347 354 267 382 352 353 352 348 355 350 342 339 330 317 325 335 345 346 341 342 345 338 347 340 340 343 347 339 347 337 337 340 345 349 352 349 353 287 346 364 345 344 340 345 344 344 343 341 332 320 337 339 346 348 347 343 346 349 342 341 344 347 342 346 335 339 341 342 351 356 351 363 248 374 364 355 347 352 343 348 345 343 331 321 325 338 341 349 342 354 346 345 346 341 352 352 350 339 348 344 359 350 355 352 345 300 377 365 355 351 349 354 348 352 346 341 334 324 323 331 346 352 348 346 346 346 348 337 342 349 342 346 344 344 347 332 337 347 343 354 350 350 354 306 326 381 353 351 354 346 349 347 350 341 339 326 318 323 334 345 340 349 347 344 341 343 346 337 344 343 344 345 347 342 339 336 338 346 350 350 351 350 360 256 371 368 353 359 355 350 355 347 349 349 337 324 329 327 343 350 343 343 339 343 335 342 350 347 342 346 344 345 338 329 331 338 344 347 346 346 354 233 374 360 339 343 337 336 